time (s)	magX	magY	magZ
8696.332489	378.521484	-319.859741	901.676270
8696.335815	387.638977	-312.787842	896.124023
8696.339150	395.704407	-305.482178	893.786194
8696.342479	403.360779	-298.118073	888.175415
8696.345818	411.309326	-290.344818	884.610229
8696.349179	418.264313	-282.513153	880.811218
8696.352484	425.979126	-274.623016	875.901917
8696.355815	432.992584	-267.200470	871.459961
8696.359146	439.421539	-260.187012	868.479248
8696.362486	445.441406	-252.296890	864.212830
8696.365811	451.461304	-244.289886	859.186462
8696.369144	458.708496	-236.224426	857.199341
8696.372479	463.734802	-228.100525	852.173096
8696.375815	468.878021	-219.509064	847.497375
8696.379149	474.722565	-211.034485	843.990723
8696.382483	480.216400	-203.261246	839.256592
8696.385840	485.418060	-195.020447	834.522583
8696.389149	490.035217	-187.188782	828.327393
8696.392473	492.139282	-178.655762	823.943909
8696.395811	500.204742	-170.239624	819.092957
8696.399145	503.419250	-162.115723	811.611938
8696.402479	508.971527	-154.400940	808.455994
8696.405810	512.595154	-145.926361	801.617859
8696.409143	516.160278	-138.971375	795.656433
8696.412472	520.543701	-130.204559	788.643005
8696.415827	523.699768	-121.203972	781.980164
8696.419143	527.264893	-114.482765	775.434326
8696.422475	530.713196	-106.826416	768.946838
8696.425808	532.817261	-99.637642	760.238525
8696.429141	533.693909	-92.331970	751.705505
8696.432473	536.440857	-84.909416	745.393372
8696.435807	538.661743	-78.188194	738.263062
8696.439169	542.168518	-71.350090	731.308044
8696.442470	543.045166	-64.102867	721.781494
8696.445804	545.207642	-57.440094	714.943359
8696.449139	547.487000	-50.543541	705.416809
8696.452470	549.532593	-43.939217	697.760437
8696.455806	550.526184	-37.919342	691.097656
8696.459143	550.526184	-31.198130	682.564697
8696.462469	551.811951	-25.645823	675.142090
8696.465806	553.974487	-19.216833	668.713135
8696.469146	554.909607	-12.904734	658.602051
8696.472471	554.091309	-6.358855	650.361267
8696.475799	553.916016	-0.338984	642.178894
8696.479158	555.084900	5.388661	590.045654
8696.482472	549.474182	11.642313	627.859802
8696.485805	553.506897	17.603741	621.723022
8696.489153	554.149780	22.688484	613.774475
8696.492468	553.390015	28.299238	606.877930
8696.495799	551.402832	34.494446	601.559387
8696.499134	553.331543	40.397430	593.435486
8696.502469	551.519775	45.891289	588.116943
8696.505806	550.350830	52.028053	581.687927
8696.509134	549.298828	57.521919	575.258972
8696.512463	547.662354	62.665108	568.654663
8696.515799	545.792053	68.801872	560.881409
8696.519137	546.201233	74.003510	557.082520
8696.522492	542.869812	79.964935	550.595032
8696.525796	540.707336	84.523666	544.341431
8696.529131	539.947510	90.134422	538.789062
8696.532464	538.018860	95.219170	531.950989
8696.535799	536.207031	100.596138	528.911804
8696.539153	536.849976	105.037979	521.138611
8696.542462	532.817261	109.479828	516.112244
8696.545795	532.174316	114.330803	509.917023
8696.549128	528.433838	119.064873	504.656952
8696.552469	529.018311	123.039154	498.227997
8696.555828	525.044006	127.071884	491.798981
8696.559128	522.355530	130.987717	487.532471
8696.562460	521.303528	134.435989	480.343658
8696.565794	517.972107	138.410294	474.031586
8696.569129	516.394104	141.800110	469.589752
8696.572458	514.582275	144.956161	461.933411
8696.575792	512.887390	148.287552	456.088867
8696.579128	510.140442	151.502045	450.069000
8696.582462	508.503937	154.190521	444.692047
8696.585792	503.945221	156.645233	438.905945
8696.589165	501.958069	160.385742	434.464081
8696.592459	500.964539	162.723541	426.690857
8696.595792	496.931763	165.236710	423.067230
8696.599121	493.658844	168.158966	418.566925
8696.602454	490.911896	170.730560	412.313324
8696.605805	488.807892	173.126831	407.696106
8696.609123	485.827148	175.990646	403.371124
8696.612458	483.430878	178.445343	398.111115
8696.615789	482.086639	180.607834	392.675690
8696.619120	479.105927	183.471649	389.461182
8696.622477	476.709686	185.751022	385.136230
8696.625790	473.261444	188.322617	379.642334
8696.629147	470.397583	191.653992	375.960297
8696.632454	469.404022	193.758041	372.102905
8696.635788	465.546631	196.212723	369.239075
8696.639126	463.617920	199.076569	364.505005
8696.642452	459.292969	201.472809	362.050293
8696.645786	458.591644	204.511978	358.660461
8696.649121	455.318665	206.674469	354.627716
8696.652463	452.454895	209.655167	351.822357
8696.655793	449.006592	212.051422	347.672760
8696.659119	445.675201	214.739929	345.627167
8696.662450	444.097168	217.253067	342.821777
8696.665783	441.467133	219.649323	339.373505
8696.669119	439.889130	221.694901	336.801910
8696.672452	436.382416	224.208054	334.639435
8696.675783	433.050995	226.312103	331.366486
8696.679112	431.297668	228.416138	328.853333
8696.682458	428.784485	230.052597	325.931061
8696.685780	426.212921	232.507309	323.067261
8696.689115	424.050415	234.202225	321.080109
8696.692445	421.537292	236.072479	317.865601
8696.695778	418.965698	237.650497	314.358887
8696.699115	416.218750	239.111618	311.728851
8696.702444	414.348480	241.040329	309.975464
8696.705811	411.893799	242.676788	307.403900
8696.709112	410.724884	243.904144	305.007629
8696.712445	406.925934	246.066620	303.429596
8696.715781	405.698578	246.475754	299.689087
8696.719112	404.471222	247.819977	297.175964
8696.722448	401.841187	248.696655	295.656372
8696.725776	399.328033	250.391602	291.974335
8696.729119	396.990234	251.794281	291.214539
8696.732442	395.470642	252.787842	288.759827
8696.735778	393.191284	254.073639	287.766266
8696.739112	391.847046	254.658081	284.960876
8696.742441	389.509216	256.703674	283.499725
8696.745776	388.048065	257.872589	282.155487
8696.749107	386.177826	259.216827	280.869690
8696.752439	384.249146	259.976624	278.765686
8696.755772	382.671112	261.554657	277.246094
8696.759125	378.872162	263.366455	276.603180
8696.762444	376.651245	265.470490	274.557617
8696.765773	375.891449	266.756287	273.505585
8696.769108	373.086060	268.275879	272.804230
8696.772441	371.098938	270.087646	271.459991
8696.775797	369.287140	272.016357	269.765076
8696.779110	367.533752	273.360596	269.940430
8696.782441	365.079071	275.639984	267.427277
8696.785771	363.559479	277.042664	267.368805
8696.789120	361.104767	279.029816	266.609009
8696.792439	359.351410	280.490936	266.083008
8696.795770	357.481171	282.478088	265.089447
8696.799101	356.136932	284.289886	265.323242
8696.802436	353.097748	286.627716	264.563446
8696.805769	351.402863	288.556396	264.212769
8696.809107	349.357239	290.309753	263.452972
8696.812439	348.772827	292.063110	263.452972
8696.815767	346.318115	293.758057	262.810089
8696.819105	344.740082	295.745178	262.225616
8696.822455	342.460693	297.673889	261.816528
8696.825771	341.467133	298.609009	261.641174
8696.829119	339.363098	300.713013	261.758057
8696.832432	338.311066	302.583282	261.816528
8696.835766	336.323944	303.752197	261.465820
8696.839100	334.687469	305.271790	260.647614
8696.842436	333.109467	306.615997	261.348969
8696.845766	332.174316	308.310913	261.991852
8696.849095	330.362518	310.064270	261.524292
8696.852429	329.661194	311.934540	261.991852
8696.855764	329.310516	312.402100	262.050293
8696.859097	326.855804	314.389221	261.874969
8696.862431	326.096008	316.025726	262.576324
8696.865760	323.991974	316.843933	262.108765
8696.869100	323.758209	318.246643	263.219208
8696.872431	322.530853	319.941559	263.394531
8696.875764	321.186584	322.279358	263.803650
8696.879093	319.024109	323.156067	264.154327
8696.882438	319.082581	325.727631	263.920532
8696.885763	316.978516	326.896545	265.147888
8696.889097	315.751160	328.766815	265.031006
8696.892430	314.348480	330.227936	266.550598
8696.895762	312.828918	331.922852	267.135040
8696.899092	311.367767	334.786652	268.303925
8696.902428	310.374207	336.423157	268.829956
8696.905758	307.861084	338.819397	269.940430
8696.909096	307.042816	341.040344	270.758636
8696.912426	304.880341	343.319672	272.862701
8696.915761	303.302307	345.891296	272.687347
8696.919088	301.607391	347.001740	274.440704
8696.922427	299.737152	350.391602	276.369415
8696.925760	298.159119	352.963165	277.655212
8696.929092	295.704407	355.651672	279.174774
8696.932424	294.652405	357.697266	280.051453
8696.935757	293.366608	360.853302	281.220367
8696.939086	291.496338	363.015778	283.558167
8696.942423	290.210571	365.762726	285.253082
8696.945752	287.405182	367.749847	287.532471
8696.949089	286.353149	371.198151	287.941589
8696.952425	284.249146	374.120392	290.513184
8696.955757	282.028229	375.347748	291.857422
8696.959088	279.748840	377.744019	293.493896
8696.962418	278.930634	380.081818	295.481049
8696.965754	276.768127	382.887207	296.182404
8696.969089	276.008362	384.289886	298.987762
8696.972419	274.547211	386.919922	300.799561
8696.975754	272.560089	389.608429	302.202240
8696.979084	271.566498	392.764465	304.540070
8696.982442	270.280701	393.933350	306.994781
8696.985755	268.819580	396.621857	309.566376
8696.989082	267.183105	398.375244	312.605530
8696.992421	265.897308	401.063690	316.112244
8696.995748	263.910156	404.044403	317.222717
8696.999081	262.682800	406.265350	319.385193
8697.002417	261.806122	408.194031	322.833466
8697.005753	259.468292	410.824066	325.112854
8697.009085	257.481171	412.694305	327.450653
8697.012423	256.195374	415.675018	330.665131
8697.015752	255.260254	418.246643	333.470520
8697.019081	252.396439	420.935120	336.392792
8697.022413	250.935318	423.974274	339.022827
8697.025747	249.240387	426.195190	342.587982
8697.029082	246.844116	428.883698	344.692047
8697.032412	244.915436	431.338409	348.841644
8697.035764	242.811386	433.559326	351.121002
8697.039081	240.648911	436.773834	355.212189
8697.042412	238.018890	438.994751	358.076019
8697.045743	234.453720	442.852112	361.582733
8697.049077	230.596329	445.891296	364.037445
8697.052413	229.602737	448.346008	368.070160
8697.055747	225.803802	451.852722	371.343109
8697.059080	222.764633	455.651672	373.680908
8697.062411	219.667053	457.872589	377.655212
8697.065743	216.160309	459.918182	382.097046
8697.069076	212.595154	463.424866	384.727081
8697.072412	209.439102	466.113373	387.941589
8697.075745	206.107712	468.918762	390.980774
8697.079075	202.659439	472.191681	395.481049
8697.082411	198.802048	474.821716	399.922882
8697.085739	195.529114	477.393341	403.780273
8697.089079	191.730164	479.322021	406.760986
8697.092420	187.989655	482.536499	412.079529
8697.095742	184.249161	485.634155	416.229156
8697.099072	180.976212	487.855072	420.320312
8697.102408	177.469482	490.543518	424.177704
8697.105739	174.547226	493.056702	428.677979
8697.109072	170.339157	495.920532	432.652283
8697.112402	166.832443	497.264771	437.444794
8697.115740	163.150375	499.894806	442.178864
8697.119078	159.526779	503.869080	446.211609
8697.122405	155.844711	505.914673	450.711914
8697.125737	151.285980	508.252502	456.322662
8697.129077	147.545471	508.135620	461.524292
8697.132406	143.746521	511.583862	466.550598
8697.135736	140.298233	512.928101	472.102875
8697.139072	135.914841	515.032166	476.603180
8697.142416	131.648331	516.960815	481.980164
8697.145758	126.855820	518.012878	486.889557
8697.149066	122.530853	521.227356	491.272980
8697.152401	118.147461	522.396240	496.766876
8697.155736	113.471832	523.740479	501.793121
8697.159069	108.620865	525.435425	506.527252
8697.162399	103.126999	526.955017	510.910614
8697.165734	97.983810	528.825256	517.398071
8697.169070	92.489944	530.812378	521.080139
8697.172416	87.112976	531.572144	525.112854
8697.177070	74.488770	532.507263	534.873230
8697.180398	68.293564	535.078918	538.379944
8697.183684	61.747688	535.780273	543.698486
8697.187021	55.377144	536.014038	547.380493
8697.190354	49.357269	536.189392	551.880798
8697.193776	41.993156	537.358215	556.498047
8697.197106	35.155052	538.351807	560.530762
8697.200394	27.966274	537.708984	563.803711
8697.203683	21.128166	538.351807	568.362427
8697.207019	12.945817	538.468750	572.628967
8697.210402	5.815484	537.825806	577.655273
8697.213751	-1.723967	538.059631	581.629517
8697.217068	-8.854300	537.475159	586.012939
8697.220348	-15.984634	537.007568	590.688538
8697.223687	-23.582531	536.832214	593.961487
8697.227084	-31.063534	534.903564	598.111145
8697.230401	-38.018536	533.909973	603.371155
8697.233723	-45.441090	533.150208	606.877930
8697.237007	-52.512974	531.922852	611.319763
8697.240346	-59.701756	529.877258	616.053833
8697.243743	-67.358093	528.591431	619.852783
8697.247085	-74.955994	526.662781	623.943970
8697.250011	-81.794098	524.441833	629.087158
8697.253299	-88.865997	522.337830	635.106995
8697.257019	-96.347000	519.766174	638.204590
8697.260354	-103.652664	516.493286	643.347839
8697.263266	-112.010345	514.447693	648.374084
8697.266678	-119.316010	511.583862	650.945679
8697.269981	-126.446350	509.538269	654.978455
8697.273265	-133.985794	505.856262	660.180054
8697.276570	-141.525253	502.115723	664.797241
8697.279953	-148.714020	498.842773	668.128662
8697.283254	-156.545700	495.745178	670.641785
8697.286635	-164.435837	491.303314	673.973145
8697.289901	-172.150620	487.562805	677.479919
8697.293228	-180.683624	482.887177	681.220398
8697.296578	-188.515305	478.445343	682.798401
8697.299924	-196.756104	473.477509	685.720703
8697.303376	-204.646240	467.749847	688.642944
8697.306654	-212.302567	463.132690	689.168945
8697.309903	-221.127823	457.872589	690.980774
8697.313230	-229.134827	452.495636	693.903015
8697.316588	-236.791168	446.592621	693.143250
8697.319994	-245.324203	440.572754	694.545959
8697.323303	-252.922073	435.663361	695.597961
8697.326592	-261.747345	429.234375	696.065491
8697.329894	-269.988159	423.565155	696.065491
8697.333284	-277.235382	417.545288	695.305786
8697.336583	-286.177521	410.882538	696.007080
8697.339980	-294.301422	404.278198	696.123962
8697.343255	-301.139526	397.907654	696.474609
8697.346553	-308.971222	391.127991	696.065491
8697.349892	-315.984650	384.173004	695.773315
8697.353250	-324.050110	376.808899	694.545959
8697.356676	-330.712860	369.678558	694.604370
8697.359964	-338.719879	362.665100	694.604370
8697.363236	-346.200897	354.716553	693.201721
8697.366556	-352.279205	348.112213	693.084778
8697.369909	-358.591309	339.988312	693.026367
8697.373343	-364.786530	331.630615	693.260132
8697.376629	-371.741516	324.792511	692.266602
8697.379916	-377.702942	317.311523	692.032776
8697.383223	-383.430603	309.655182	690.863892
8697.386580	-390.619354	301.355957	690.688538
8697.389910	-395.821014	293.407349	690.513184
8697.393297	-401.490173	285.692566	689.753418
8697.396592	-407.276276	276.516663	690.279419
8697.399887	-412.477936	269.094086	688.467651
8697.403221	-417.796448	261.320862	686.714233
8697.406578	-423.699463	252.963165	686.363586
8697.409966	-427.849030	244.196381	685.311584
8697.413299	-433.401367	236.540039	682.213928
8697.416642	-437.258728	228.416138	680.343689
8697.419885	-442.635742	220.175339	678.298096
8697.423232	-446.726929	212.460556	676.077209
8697.426622	-450.701172	204.453522	674.206970
8697.429945	-454.558594	196.329620	671.752258
8697.433215	-458.532867	188.147278	667.778015
8697.436551	-463.734497	179.848038	664.972595
8697.439902	-468.176331	171.665695	662.868591
8697.443317	-471.332367	164.009354	659.128052
8697.446623	-473.670227	156.352997	654.744629
8697.449885	-477.819855	148.755112	651.413269
8697.453209	-481.385010	141.332550	646.620728
8697.456559	-483.898132	133.851547	642.880249
8697.459950	-488.223083	126.487427	638.087708
8697.463275	-489.567352	119.064873	632.067871
8697.466546	-492.431183	110.940964	628.152039
8697.469901	-494.242981	103.927521	622.424377
8697.473228	-495.879456	96.504967	617.924072
8697.476608	-498.275696	89.023964	611.845764
8697.479938	-501.022644	82.127403	609.215698
8697.483213	-501.840820	75.406197	603.254272
8697.486565	-502.776001	68.743423	598.344849
8697.489899	-505.639832	61.905312	593.669250
8697.492814	-507.510071	54.833427	590.454773
8697.496141	-507.685425	47.819984	585.077759
8697.499878	-508.971191	41.215660	581.571106
8697.502789	-510.549255	34.903564	576.836975
8697.506147	-513.822144	25.552309	571.401550
8697.509451	-512.127258	21.578024	567.661072
8697.512786	-512.711670	14.915255	564.797241
8697.516124	-513.003967	8.194038	560.413879
8697.519451	-512.770142	2.700175	556.614929
8697.522801	-514.231262	-3.670369	551.880798
8697.526121	-514.406616	-11.502046	548.315674
8697.529469	-513.179260	-16.820572	546.270081
8697.532784	-514.523499	-23.950905	539.841125
8697.536115	-514.757263	-29.327879	537.269470
8697.539445	-513.997498	-35.113968	532.418518
8697.542781	-512.770142	-41.250732	529.379395
8697.546139	-512.361023	-47.270599	525.288208
8697.549457	-512.010376	-52.706024	521.723022
8697.552782	-512.185669	-57.907654	518.800781
8697.556115	-511.484375	-63.109291	514.592712
8697.559450	-510.958374	-68.836937	509.624786
8697.562795	-509.789429	-73.863243	506.877899
8697.566121	-509.029663	-78.538872	502.026947
8697.569449	-506.341125	-83.798950	497.409698
8697.572782	-506.808716	-88.357689	492.675690
8697.576130	-505.698242	-93.150208	486.947998
8697.579467	-503.944885	-97.007599	483.324371
8697.582780	-502.542236	-101.449448	478.005890
8697.586114	-500.847290	-105.482178	473.388702
8697.589447	-500.964172	-108.813568	470.232635
8697.592781	-498.392578	-113.138512	463.920532
8697.596129	-498.626404	-116.645233	459.770905
8697.599444	-494.827454	-120.502632	453.166626
8697.602779	-494.359863	-124.126251	448.315613
8697.606107	-493.074066	-127.340736	445.393372
8697.609444	-492.255859	-130.263000	440.016418
8697.612799	-489.450470	-134.120392	434.931671
8697.616110	-486.528168	-137.627121	431.541809
8697.619442	-485.943726	-140.432495	427.275330
8697.622778	-483.664337	-143.296310	424.060822
8697.626109	-482.144806	-146.043259	417.807159
8697.629459	-480.449890	-150.075974	414.592682
8697.632783	-478.754974	-152.822922	411.085937
8697.636106	-477.995178	-155.336060	408.572815
8697.639435	-475.540466	-159.368790	404.715393
8697.642777	-474.020874	-162.407944	402.494476
8697.646128	-472.092163	-164.979553	399.747559
8697.649441	-471.040161	-167.375809	396.942169
8697.652801	-468.117889	-171.350098	393.844543
8697.656104	-466.306091	-173.921692	391.039185
8697.659439	-463.968292	-177.428406	388.642914
8697.662788	-462.857849	-180.876694	386.831146
8697.666105	-460.403137	-183.798950	383.908844
8697.669435	-459.058868	-186.370544	382.097046
8697.672771	-454.909241	-190.169495	378.298096
8697.676128	-454.500122	-193.208649	376.427856
8697.679452	-453.565002	-195.429581	373.680908
8697.682773	-450.876556	-199.053192	370.524872
8697.686102	-450.292084	-201.449448	369.648193
8697.689434	-445.908661	-204.488602	366.901245
8697.692769	-444.389069	-207.352432	365.147888
8697.696120	-444.038422	-208.346008	363.160736
8697.699441	-441.466827	-210.800705	361.758057
8697.702765	-438.427673	-213.080063	358.192902
8697.706110	-437.667877	-214.190521	356.556427
8697.709433	-435.037811	-217.171249	353.867950
8697.712782	-433.167572	-219.801300	351.880798
8697.716107	-432.349335	-220.444199	349.192291
8697.719433	-430.128418	-223.191116	347.438965
8697.722763	-428.024414	-225.119827	344.692047
8697.726102	-425.861908	-227.808304	342.880219
8697.729033	-424.809906	-228.451202	340.016388
8697.732347	-422.881195	-230.087677	338.496826
8697.735680	-421.127808	-232.776154	335.399231
8697.739013	-420.426483	-232.600830	333.704315
8697.742343	-417.796448	-235.230865	331.892487
8697.745677	-416.335327	-236.282883	329.730011
8697.749009	-414.114410	-237.919342	328.093536
8697.752344	-411.659698	-238.679138	326.106415
8697.755674	-410.724579	-241.367615	324.469940
8697.759005	-410.081635	-242.302750	323.008789
8697.762339	-408.328308	-243.880768	322.190582
8697.765678	-405.873596	-245.575684	320.437225
8697.769007	-404.587830	-247.036835	319.677429
8697.772337	-403.243561	-249.257751	318.391602
8697.775670	-402.133118	-251.186432	317.222717
8697.779005	-399.503052	-253.115143	317.164276
8697.782365	-398.100342	-254.810059	317.631836
8697.785674	-397.048340	-257.089417	316.112244
8697.789005	-395.645630	-259.251892	315.001801
8697.792341	-394.593628	-261.005249	315.001801
